grid,phi_e[V],distance[m],distance[RE]
1,0.0000000000000E+00,0.0000000000000E+00,0.0000000000000E+00
2,-5.3357481743327E-03,1.2918051312041E+05,2.0276332305825E-02
3,-1.0480284944969E-02,2.5836102624082E+05,4.0552664611650E-02
4,-1.5443594026969E-02,3.8754153936123E+05,6.0828996917475E-02
5,-2.0234973405376E-02,5.1672205248164E+05,8.1105329223299E-02
6,-2.4863093183381E-02,6.4590256560205E+05,1.0138166152912E-01
7,-2.9336047671854E-02,7.7508307872246E+05,1.2165799383495E-01
8,-3.3661402378195E-02,9.0426359184287E+05,1.4193432614077E-01
9,-3.7846236467785E-02,1.0334441049633E+06,1.6221065844660E-01
10,-4.1897181198973E-02,1.1626246180837E+06,1.8248699075242E-01
11,-4.5820454770104E-02,1.2918051312041E+06,2.0276332305825E-01
12,-4.9621893963367E-02,1.4209856443245E+06,2.2303965536407E-01
13,-5.3306982923804E-02,1.5501661574449E+06,2.4331598766990E-01
14,-5.6880879371576E-02,1.6793466705653E+06,2.6359231997572E-01
15,-6.0348438510652E-02,1.8085271836857E+06,2.8386865228155E-01
16,-6.3714234866703E-02,1.9377076968062E+06,3.0414498458737E-01
17,-6.6982582260464E-02,2.0668882099266E+06,3.2442131689320E-01
18,-7.0157552099717E-02,2.1960687230470E+06,3.4469764919902E-01
19,-7.3242990152711E-02,2.3252492361674E+06,3.6497398150485E-01
20,-7.6242531948112E-02,2.4544297492878E+06,3.8525031381067E-01
21,-7.9159616930930E-02,2.5836102624082E+06,4.0552664611650E-01
22,-8.1997501490107E-02,2.7127907755286E+06,4.2580297842232E-01
23,-8.4759270961322E-02,2.8419712886490E+06,4.4607931072815E-01
24,-8.7447850697844E-02,2.9711518017694E+06,4.6635564303397E-01
25,-9.0066016292781E-02,3.1003323148898E+06,4.8663197533980E-01
26,-9.2616403027669E-02,3.2295128280103E+06,5.0690830764562E-01
27,-9.5101514614834E-02,3.3586933411307E+06,5.2718463995145E-01
28,-9.7523731294411E-02,3.4878738542511E+06,5.4746097225727E-01
29,-9.9885317340866E-02,3.6170543673715E+06,5.6773730456310E-01
30,-1.0218842802870E-01,3.7462348804919E+06,5.8801363686892E-01
31,-1.0443511610226E-01,3.8754153936123E+06,6.0828996917475E-01
32,-1.0662733779029E-01,4.0045959067327E+06,6.2856630148057E-01
33,-1.0876695840234E-01,4.1337764198531E+06,6.4884263378640E-01
34,-1.1085575754032E-01,4.2629569329735E+06,6.6911896609222E-01
35,-1.1289543395593E-01,4.3921374460939E+06,6.8939529839805E-01
36,-1.1488761008166E-01,4.5213179592144E+06,7.0967163070387E-01
37,-1.1683383626062E-01,4.6504984723348E+06,7.2994796300969E-01
38,-1.1873559469839E-01,4.7796789854552E+06,7.5022429531552E-01
39,-1.2059430315792E-01,4.9088594985756E+06,7.7050062762134E-01
40,-1.2241131841677E-01,5.0380400116960E+06,7.9077695992717E-01
41,-1.2418793950436E-01,5.1672205248164E+06,8.1105329223299E-01
42,-1.2592541073537E-01,5.2964010379368E+06,8.3132962453882E-01
43,-1.2762492455414E-01,5.4255815510572E+06,8.5160595684464E-01
44,-1.2928762420361E-01,5.5547620641776E+06,8.7188228915047E-01
45,-1.3091460623143E-01,5.6839425772980E+06,8.9215862145629E-01
46,-1.3250692284449E-01,5.8131230904185E+06,9.1243495376212E-01
47,-1.3406558412276E-01,5.9423036035389E+06,9.3271128606794E-01
48,-1.3559156010189E-01,6.0714841166593E+06,9.5298761837377E-01
49,-1.3708578273369E-01,6.2006646297797E+06,9.7326395067959E-01
50,-1.3854914773275E-01,6.3298451429001E+06,9.9354028298542E-01
51,-1.3998251631685E-01,6.4590256560205E+06,1.0138166152912E+00
52,-1.4138671684814E-01,6.5882061691409E+06,1.0340929475971E+00
53,-1.4276254638182E-01,6.7173866822613E+06,1.0543692799029E+00
54,-1.4411077212808E-01,6.8465671953817E+06,1.0746456122087E+00
55,-1.4543213283315E-01,6.9757477085021E+06,1.0949219445145E+00
56,-1.4672734008457E-01,7.1049282216226E+06,1.1151982768204E+00
57,-1.4799707954537E-01,7.2341087347430E+06,1.1354746091262E+00
58,-1.4924201212185E-01,7.3632892478634E+06,1.1557509414320E+00
59,-1.5046277506887E-01,7.4924697609838E+06,1.1760272737378E+00
60,-1.5165998303675E-01,7.6216502741042E+06,1.1963036060437E+00
61,-1.5283422906310E-01,7.7508307872246E+06,1.2165799383495E+00
62,-1.5398608551314E-01,7.8800113003450E+06,1.2368562706553E+00
63,-1.5511610497153E-01,8.0091918134654E+06,1.2571326029611E+00
64,-1.5622482108853E-01,8.1383723265858E+06,1.2774089352670E+00
65,-1.5731274938338E-01,8.2675528397063E+06,1.2976852675728E+00
66,-1.5838038800714E-01,8.3967333528267E+06,1.3179615998786E+00
67,-1.5942821846765E-01,8.5259138659471E+06,1.3382379321844E+00
68,-1.6045670631858E-01,8.6550943790675E+06,1.3585142644903E+00
69,-1.6146630181471E-01,8.7842748921879E+06,1.3787905967961E+00
70,-1.6245744053530E-01,8.9134554053083E+06,1.3990669291019E+00
71,-1.6343054397751E-01,9.0426359184287E+06,1.4193432614077E+00
72,-1.6438602012127E-01,9.1718164315491E+06,1.4396195937136E+00
73,-1.6532426396745E-01,9.3009969446695E+06,1.4598959260194E+00
74,-1.6624565805067E-01,9.4301774577899E+06,1.4801722583252E+00
75,-1.6715057292806E-01,9.5593579709104E+06,1.5004485906310E+00
76,-1.6803936764552E-01,9.6885384840308E+06,1.5207249229369E+00
77,-1.6891239018234E-01,9.8177189971512E+06,1.5410012552427E+00
78,-1.6976997787571E-01,9.9468995102716E+06,1.5612775875485E+00
79,-1.7061245782583E-01,1.0076080023392E+07,1.5815539198543E+00
80,-1.7144014728293E-01,1.0205260536512E+07,1.6018302521602E+00
81,-1.7225335401697E-01,1.0334441049633E+07,1.6221065844660E+00
82,-1.7305237667092E-01,1.0463621562753E+07,1.6423829167718E+00
83,-1.7383750509860E-01,1.0592802075874E+07,1.6626592490776E+00
84,-1.7460902068769E-01,1.0721982588994E+07,1.6829355813835E+00
85,-1.7536719666878E-01,1.0851163102114E+07,1.7032119136893E+00
86,-1.7611229841112E-01,1.0980343615235E+07,1.7234882459951E+00
87,-1.7684458370573E-01,1.1109524128355E+07,1.7437645783009E+00
88,-1.7756430303651E-01,1.1238704641476E+07,1.7640409106068E+00
89,-1.7827169983993E-01,1.1367885154596E+07,1.7843172429126E+00
90,-1.7896701075383E-01,1.1497065667717E+07,1.8045935752184E+00
91,-1.7965046585595E-01,1.1626246180837E+07,1.8248699075242E+00
92,-1.8032228889253E-01,1.1755426693957E+07,1.8451462398301E+00
93,-1.8098269749763E-01,1.1884607207078E+07,1.8654225721359E+00
94,-1.8163190340347E-01,1.2013787720198E+07,1.8856989044417E+00
95,-1.8227011264227E-01,1.2142968233319E+07,1.9059752367475E+00
96,-1.8289752574000E-01,1.2272148746439E+07,1.9262515690534E+00
97,-1.8351433790239E-01,1.2401329259559E+07,1.9465279013592E+00
98,-1.8412073919355E-01,1.2530509772680E+07,1.9668042336650E+00
99,-1.8471691470756E-01,1.2659690285800E+07,1.9870805659708E+00
100,-1.8530304473336E-01,1.2788870798921E+07,2.0073568982767E+00
101,-1.8587930491320E-01,1.2918051312041E+07,2.0276332305825E+00
102,-1.8644586639495E-01,1.3047231825161E+07,2.0479095628883E+00
103,-1.8700289597861E-01,1.3176412338282E+07,2.0681858951941E+00
104,-1.8755055625712E-01,1.3305592851402E+07,2.0884622275000E+00
105,-1.8808900575195E-01,1.3434773364523E+07,2.1087385598058E+00
106,-1.8861839904342E-01,1.3563953877643E+07,2.1290148921116E+00
107,-1.8913888689627E-01,1.3693134390764E+07,2.1492912244174E+00
108,-1.8965061638042E-01,1.3822314903884E+07,2.1695675567233E+00
109,-1.9015373098729E-01,1.3951495417004E+07,2.1898438890291E+00
110,-1.9064837074183E-01,1.4080675930125E+07,2.2101202213349E+00
111,-1.9113467231042E-01,1.4209856443245E+07,2.2303965536407E+00
112,-1.9161276910478E-01,1.4339036956366E+07,2.2506728859466E+00
113,-1.9208279138216E-01,1.4468217469486E+07,2.2709492182524E+00
114,-1.9254486634184E-01,1.4597397982606E+07,2.2912255505582E+00
115,-1.9299911821817E-01,1.4726578495727E+07,2.3115018828640E+00
116,-1.9344566837028E-01,1.4855759008847E+07,2.3317782151699E+00
117,-1.9388463536854E-01,1.4984939521968E+07,2.3520545474757E+00
118,-1.9431613507797E-01,1.5114120035088E+07,2.3723308797815E+00
119,-1.9474028073865E-01,1.5243300548208E+07,2.3926072120873E+00
120,-1.9515718304332E-01,1.5372481061329E+07,2.4128835443932E+00
121,-1.9556695021222E-01,1.5501661574449E+07,2.4331598766990E+00
122,-1.9596968806528E-01,1.5630842087570E+07,2.4534362090048E+00
123,-1.9636550009180E-01,1.5760022600690E+07,2.4737125413106E+00
124,-1.9675448751767E-01,1.5889203113810E+07,2.4939888736165E+00
125,-1.9713674937026E-01,1.6018383626931E+07,2.5142652059223E+00
126,-1.9751238254101E-01,1.6147564140051E+07,2.5345415382281E+00
127,-1.9788148184586E-01,1.6276744653172E+07,2.5548178705339E+00
128,-1.9824414008358E-01,1.6405925166292E+07,2.5750942028398E+00
129,-1.9860044809204E-01,1.6535105679413E+07,2.5953705351456E+00
130,-1.9895049480257E-01,1.6664286192533E+07,2.6156468674514E+00
131,-1.9929436729232E-01,1.6793466705653E+07,2.6359231997572E+00
132,-1.9963215083496E-01,1.6922647218774E+07,2.6561995320631E+00
133,-1.9996392894943E-01,1.7051827731894E+07,2.6764758643689E+00
134,-2.0028978344710E-01,1.7181008245015E+07,2.6967521966747E+00
135,-2.0060979447726E-01,1.7310188758135E+07,2.7170285289805E+00
136,-2.0092404057094E-01,1.7439369271255E+07,2.7373048612864E+00
137,-2.0123259868326E-01,1.7568549784376E+07,2.7575811935922E+00
138,-2.0153554423424E-01,1.7697730297496E+07,2.7778575258980E+00
139,-2.0183295114815E-01,1.7826910810617E+07,2.7981338582038E+00
140,-2.0212489189146E-01,1.7956091323737E+07,2.8184101905097E+00
141,-2.0241143750940E-01,1.8085271836857E+07,2.8386865228155E+00
142,-2.0269265766123E-01,1.8214452349978E+07,2.8589628551213E+00
143,-2.0296862065413E-01,1.8343632863098E+07,2.8792391874271E+00
144,-2.0323939347595E-01,1.8472813376219E+07,2.8995155197330E+00
145,-2.0350504182661E-01,1.8601993889339E+07,2.9197918520388E+00
146,-2.0376563014844E-01,1.8731174402460E+07,2.9400681843446E+00
147,-2.0402122165522E-01,1.8860354915580E+07,2.9603445166504E+00
148,-2.0427187836019E-01,1.8989535428700E+07,2.9806208489563E+00
149,-2.0451766110295E-01,1.9118715941821E+07,3.0008971812621E+00
150,-2.0475862957521E-01,1.9247896454941E+07,3.0211735135679E+00
151,-2.0499484234561E-01,1.9377076968062E+07,3.0414498458737E+00
152,-2.0522635688336E-01,1.9506257481182E+07,3.0617261781796E+00
153,-2.0545322958104E-01,1.9635437994302E+07,3.0820025104854E+00
154,-2.0567551577632E-01,1.9764618507423E+07,3.1022788427912E+00
155,-2.0589326977275E-01,1.9893799020543E+07,3.1225551750970E+00
156,-2.0610654485961E-01,2.0022979533664E+07,3.1428315074029E+00
157,-2.0631539333086E-01,2.0152160046784E+07,3.1631078397087E+00
158,-2.0651986650316E-01,2.0281340559904E+07,3.1833841720145E+00
159,-2.0672001473308E-01,2.0410521073025E+07,3.2036605043203E+00
160,-2.0691588743334E-01,2.0539701586145E+07,3.2239368366262E+00
161,-2.0710753308831E-01,2.0668882099266E+07,3.2442131689320E+00
162,-2.0729499926864E-01,2.0798062612386E+07,3.2644895012378E+00
163,-2.0747833264507E-01,2.0927243125506E+07,3.2847658335436E+00
164,-2.0765757900148E-01,2.1056423638627E+07,3.3050421658495E+00
165,-2.0783278324713E-01,2.1185604151747E+07,3.3253184981553E+00
166,-2.0800398942814E-01,2.1314784664868E+07,3.3455948304611E+00
167,-2.0817124073826E-01,2.1443965177988E+07,3.3658711627669E+00
168,-2.0833457952889E-01,2.1573145691109E+07,3.3861474950728E+00
169,-2.0849404731833E-01,2.1702326204229E+07,3.4064238273786E+00
170,-2.0864968480043E-01,2.1831506717349E+07,3.4267001596844E+00
171,-2.0880153185246E-01,2.1960687230470E+07,3.4469764919902E+00
172,-2.0894962754238E-01,2.2089867743590E+07,3.4672528242961E+00
173,-2.0909401013543E-01,2.2219048256711E+07,3.4875291566019E+00
174,-2.0923471710005E-01,2.2348228769831E+07,3.5078054889077E+00
175,-2.0937178511322E-01,2.2477409282951E+07,3.5280818212135E+00
176,-2.0950525006520E-01,2.2606589796072E+07,3.5483581535194E+00
177,-2.0963514706360E-01,2.2735770309192E+07,3.5686344858252E+00
178,-2.0976151043703E-01,2.2864950822313E+07,3.5889108181310E+00
179,-2.0988437373800E-01,2.2994131335433E+07,3.6091871504368E+00
180,-2.1000376974547E-01,2.3123311848553E+07,3.6294634827427E+00
181,-2.1011973046674E-01,2.3252492361674E+07,3.6497398150485E+00
182,-2.1023228713892E-01,2.3381672874794E+07,3.6700161473543E+00
183,-2.1034147022990E-01,2.3510853387915E+07,3.6902924796601E+00
184,-2.1044730943885E-01,2.3640033901035E+07,3.7105688119660E+00
185,-2.1054983369628E-01,2.3769214414156E+07,3.7308451442718E+00
186,-2.1064907116373E-01,2.3898394927276E+07,3.7511214765776E+00
187,-2.1074504923295E-01,2.4027575440396E+07,3.7713978088834E+00
188,-2.1083779452487E-01,2.4156755953517E+07,3.7916741411893E+00
189,-2.1092733288808E-01,2.4285936466637E+07,3.8119504734951E+00
190,-2.1101368939702E-01,2.4415116979758E+07,3.8322268058009E+00
191,-2.1109688834994E-01,2.4544297492878E+07,3.8525031381067E+00
192,-2.1117695326647E-01,2.4673478005998E+07,3.8727794704126E+00
193,-2.1125390688502E-01,2.4802658519119E+07,3.8930558027184E+00
194,-2.1132777115994E-01,2.4931839032239E+07,3.9133321350242E+00
195,-2.1139856725842E-01,2.5061019545360E+07,3.9336084673300E+00
196,-2.1146631555728E-01,2.5190200058480E+07,3.9538847996359E+00
197,-2.1153103563961E-01,2.5319380571600E+07,3.9741611319417E+00
198,-2.1159274629124E-01,2.5448561084721E+07,3.9944374642475E+00
199,-2.1165146549715E-01,2.5577741597841E+07,4.0147137965533E+00
200,-2.1170721043781E-01,2.5706922110962E+07,4.0349901288591E+00
201,-2.1175999748545E-01,2.5836102624082E+07,4.0552664611650E+00
202,-2.1180984220035E-01,2.5965283137202E+07,4.0755427934708E+00
203,-2.1185675932711E-01,2.6094463650323E+07,4.0958191257766E+00
204,-2.1190076279097E-01,2.6223644163443E+07,4.1160954580824E+00
205,-2.1194186569419E-01,2.6352824676564E+07,4.1363717903883E+00
206,-2.1198008031249E-01,2.6482005189684E+07,4.1566481226941E+00
207,-2.1201541809164E-01,2.6611185702805E+07,4.1769244549999E+00
208,-2.1204788964412E-01,2.6740366215925E+07,4.1972007873057E+00
209,-2.1207750474600E-01,2.6869546729045E+07,4.2174771196116E+00
210,-2.1210427233395E-01,2.6998727242166E+07,4.2377534519174E+00
211,-2.1212820050241E-01,2.7127907755286E+07,4.2580297842232E+00
212,-2.1214929650107E-01,2.7257088268407E+07,4.2783061165290E+00
213,-2.1216756673245E-01,2.7386268781527E+07,4.2985824488349E+00
214,-2.1218301674982E-01,2.7515449294647E+07,4.3188587811407E+00
215,-2.1219565125533E-01,2.7644629807768E+07,4.3391351134465E+00
216,-2.1220547409841E-01,2.7773810320888E+07,4.3594114457523E+00
217,-2.1221248827444E-01,2.7902990834009E+07,4.3796877780582E+00
218,-2.1221669592373E-01,2.8032171347129E+07,4.3999641103640E+00
219,0.0000000000000E+00,2.8161351860249E+07,4.4202404426698E+00
